n	REAL(eigenstate[n])	IMAG(eigenstate[n])
0	0.000091	0.000099
1	0.000175	0.000185
2	0.000249	0.000264
3	0.000315	0.000334
4	0.000371	0.000391
5	0.000415	0.000446
6	0.000464	0.000490
7	0.000502	0.000527
8	0.000537	0.000568
9	0.000567	0.000596
10	0.000597	0.000617
11	0.000623	0.000640
12	0.000655	0.000657
13	0.000684	0.000676
14	0.000707	0.000697
15	0.000732	0.000719
16	0.000763	0.000740
17	0.000785	0.000756
18	0.000809	0.000766
19	0.000833	0.000776
20	0.000848	0.000793
21	0.000855	0.000812
22	0.000852	0.000822
23	0.000858	0.000827
24	0.000858	0.000833
25	0.000866	0.000835
26	0.000864	0.000844
27	0.000857	0.000849
28	0.000859	0.000862
29	0.000863	0.000879
30	0.000865	0.000891
31	0.000870	0.000900
32	0.000878	0.000903
33	0.000886	0.000912
34	0.000890	0.000918
35	0.000889	0.000933
36	0.000889	0.000946
37	0.000888	0.000956
38	0.000889	0.000969
39	0.000883	0.000980
40	0.000881	0.000998
41	0.000882	0.001008
42	0.000880	0.001023
43	0.000881	0.001049
44	0.000885	0.001071
45	0.000889	0.001092
46	0.000896	0.001106
47	0.000898	0.001115
48	0.000909	0.001124
49	0.000924	0.001139
50	0.000942	0.001151
51	0.000963	0.001155
52	0.000980	0.001157
53	0.001005	0.001153
54	0.001031	0.001159
55	0.001062	0.001158
56	0.001085	0.001154
57	0.001100	0.001151
58	0.001115	0.001147
59	0.001134	0.001149
60	0.001147	0.001145
61	0.001153	0.001136
62	0.001159	0.001134
63	0.001161	0.001132
64	0.001156	0.001127
65	0.001156	0.001133
66	0.001166	0.001146
67	0.001169	0.001156
68	0.001171	0.001162
69	0.001169	0.001161
70	0.001160	0.001168
71	0.001144	0.001185
72	0.001128	0.001196
73	0.001114	0.001203
74	0.001109	0.001217
75	0.001112	0.001228
76	0.001114	0.001231
77	0.001125	0.001227
78	0.001133	0.001230
79	0.001137	0.001227
80	0.001133	0.001226
81	0.001126	0.001233
82	0.001112	0.001232
83	0.001095	0.001232
84	0.001078	0.001233
85	0.001058	0.001236
86	0.001039	0.001241
87	0.001024	0.001249
88	0.001012	0.001267
89	0.001005	0.001282
90	0.000999	0.001302
91	0.000996	0.001327
92	0.000996	0.001344
93	0.001002	0.001366
94	0.001012	0.001382
95	0.001024	0.001392
96	0.001045	0.001410
97	0.001071	0.001422
98	0.001097	0.001428
99	0.001125	0.001430
100	0.001158	0.001424
101	0.001192	0.001412
102	0.001230	0.001397
103	0.001262	0.001382
104	0.001300	0.001366
105	0.001330	0.001361
106	0.001365	0.001354
107	0.001398	0.001355
108	0.001432	0.001355
109	0.001470	0.001351
110	0.001507	0.001343
111	0.001536	0.001332
112	0.001567	0.001319
113	0.001599	0.001314
114	0.001625	0.001319
115	0.001645	0.001316
116	0.001661	0.001321
117	0.001674	0.001329
118	0.001681	0.001345
119	0.001687	0.001359
120	0.001693	0.001380
121	0.001695	0.001399
122	0.001696	0.001411
123	0.001700	0.001424
124	0.001713	0.001444
125	0.001720	0.001458
126	0.001729	0.001466
127	0.001742	0.001467
128	0.001748	0.001478
129	0.001765	0.001480
130	0.001778	0.001476
131	0.001785	0.001482
132	0.001796	0.001485
133	0.001806	0.001485
134	0.001822	0.001489
135	0.001840	0.001494
136	0.001851	0.001492
137	0.001861	0.001493
138	0.001865	0.001491
139	0.001867	0.001495
140	0.001861	0.001508
141	0.001850	0.001517
142	0.001839	0.001527
143	0.001831	0.001540
144	0.001828	0.001553
145	0.001831	0.001564
146	0.001833	0.001583
147	0.001831	0.001607
148	0.001823	0.001622
149	0.001821	0.001636
150	0.001811	0.001658
151	0.001792	0.001673
152	0.001780	0.001680
153	0.001767	0.001683
154	0.001748	0.001694
155	0.001736	0.001709
156	0.001733	0.001717
157	0.001734	0.001734
158	0.001738	0.001749
159	0.001749	0.001758
160	0.001764	0.001764
161	0.001772	0.001771
162	0.001777	0.001770
163	0.001774	0.001765
164	0.001777	0.001760
165	0.001776	0.001762
166	0.001766	0.001768
167	0.001760	0.001771
168	0.001758	0.001780
169	0.001760	0.001782
170	0.001767	0.001791
171	0.001784	0.001799
172	0.001799	0.001813
173	0.001807	0.001829
174	0.001822	0.001836
175	0.001833	0.001835
176	0.001846	0.001833
177	0.001860	0.001829
178	0.001878	0.001834
179	0.001895	0.001843
180	0.001913	0.001849
181	0.001922	0.001861
182	0.001925	0.001873
183	0.001925	0.001892
184	0.001935	0.001917
185	0.001947	0.001933
186	0.001961	0.001955
187	0.001975	0.001979
188	0.001985	0.002012
189	0.001985	0.002049
190	0.001990	0.002080
191	0.001998	0.002107
192	0.002010	0.002132
193	0.002018	0.002153
194	0.002036	0.002170
195	0.002058	0.002195
196	0.002081	0.002220
197	0.002097	0.002252
198	0.002115	0.002290
199	0.002136	0.002328
200	0.002156	0.002369
201	0.002175	0.002406
202	0.002201	0.002436
203	0.002220	0.002476
204	0.002240	0.002512
205	0.002259	0.002540
206	0.002276	0.002567
207	0.002296	0.002587
208	0.002315	0.002601
209	0.002332	0.002607
210	0.002356	0.002612
211	0.002390	0.002610
212	0.002431	0.002609
213	0.002468	0.002602
214	0.002507	0.002594
215	0.002537	0.002596
216	0.002563	0.002591
217	0.002583	0.002585
218	0.002600	0.002573
219	0.002617	0.002557
220	0.002631	0.002549
221	0.002641	0.002550
222	0.002642	0.002555
223	0.002650	0.002569
224	0.002667	0.002581
225	0.002691	0.002588
226	0.002712	0.002601
227	0.002730	0.002621
228	0.002756	0.002634
229	0.002786	0.002650
230	0.002817	0.002665
231	0.002850	0.002684
232	0.002877	0.002710
233	0.002894	0.002739
234	0.002922	0.002768
235	0.002947	0.002797
236	0.002971	0.002822
237	0.002986	0.002850
238	0.003004	0.002876
239	0.003029	0.002908
240	0.003046	0.002943
241	0.003061	0.002981
242	0.003077	0.003016
243	0.003094	0.003058
244	0.003110	0.003096
245	0.003132	0.003130
246	0.003164	0.003173
247	0.003201	0.003215
248	0.003232	0.003248
249	0.003263	0.003288
250	0.003291	0.003321
251	0.003318	0.003363
252	0.003347	0.003409
253	0.003368	0.003453
254	0.003384	0.003494
255	0.003408	0.003543
256	0.003434	0.003588
257	0.003461	0.003630
258	0.003482	0.003665
259	0.003501	0.003693
260	0.003518	0.003722
261	0.003535	0.003747
262	0.003554	0.003769
263	0.003572	0.003788
264	0.003581	0.003812
265	0.003597	0.003845
266	0.003621	0.003877
267	0.003636	0.003904
268	0.003653	0.003932
269	0.003676	0.003953
270	0.003708	0.003981
271	0.003733	0.004014
272	0.003767	0.004047
273	0.003802	0.004086
274	0.003845	0.004117
275	0.003889	0.004157
276	0.003927	0.004194
277	0.003967	0.004223
278	0.004004	0.004259
279	0.004041	0.004285
280	0.004087	0.004311
281	0.004139	0.004333
282	0.004192	0.004364
283	0.004243	0.004401
284	0.004302	0.004432
285	0.004352	0.004458
286	0.004409	0.004490
287	0.004462	0.004517
288	0.004526	0.004550
289	0.004596	0.004591
290	0.004674	0.004640
291	0.004745	0.004688
292	0.004817	0.004746
293	0.004894	0.004810
294	0.004979	0.004881
295	0.005059	0.004948
296	0.005141	0.005022
297	0.005228	0.005105
298	0.005322	0.005183
299	0.005413	0.005253
300	0.005501	0.005327
301	0.005589	0.005400
302	0.005682	0.005466
303	0.005783	0.005538
304	0.005888	0.005614
305	0.005996	0.005695
306	0.006097	0.005776
307	0.006200	0.005862
308	0.006304	0.005952
309	0.006409	0.006038
310	0.006516	0.006121
311	0.006617	0.006209
312	0.006724	0.006290
313	0.006827	0.006379
314	0.006941	0.006467
315	0.007048	0.006559
316	0.007149	0.006646
317	0.007246	0.006734
318	0.007342	0.006828
319	0.007437	0.006916
320	0.007540	0.007013
321	0.007645	0.007120
322	0.007753	0.007236
323	0.007864	0.007362
324	0.007971	0.007482
325	0.008078	0.007611
326	0.008189	0.007747
327	0.008309	0.007884
328	0.008429	0.008018
329	0.008554	0.008146
330	0.008685	0.008270
331	0.008817	0.008401
332	0.008946	0.008538
333	0.009076	0.008680
334	0.009214	0.008825
335	0.009353	0.008978
336	0.009500	0.009132
337	0.009646	0.009298
338	0.009803	0.009461
339	0.009959	0.009634
340	0.010124	0.009801
341	0.010297	0.009974
342	0.010468	0.010148
343	0.010643	0.010325
344	0.010825	0.010508
345	0.011016	0.010687
346	0.011219	0.010865
347	0.011415	0.011042
348	0.011623	0.011214
349	0.011837	0.011388
350	0.012049	0.011567
351	0.012257	0.011742
352	0.012460	0.011927
353	0.012659	0.012115
354	0.012858	0.012315
355	0.013071	0.012517
356	0.013282	0.012714
357	0.013494	0.012919
358	0.013708	0.013127
359	0.013915	0.013346
360	0.014120	0.013578
361	0.014324	0.013821
362	0.014524	0.014058
363	0.014723	0.014295
364	0.014929	0.014545
365	0.015141	0.014805
366	0.015366	0.015076
367	0.015601	0.015355
368	0.015832	0.015628
369	0.016076	0.015914
370	0.016322	0.016202
371	0.016572	0.016502
372	0.016830	0.016808
373	0.017101	0.017125
374	0.017383	0.017437
375	0.017660	0.017763
376	0.017947	0.018103
377	0.018229	0.018444
378	0.018518	0.018796
379	0.018817	0.019148
380	0.019113	0.019500
381	0.019408	0.019855
382	0.019698	0.020206
383	0.019985	0.020553
384	0.020285	0.020897
385	0.020590	0.021238
386	0.020891	0.021580
387	0.021203	0.021918
388	0.021529	0.022266
389	0.021865	0.022625
390	0.022211	0.022995
391	0.022568	0.023376
392	0.022922	0.023765
393	0.023281	0.024166
394	0.023637	0.024576
395	0.023989	0.024989
396	0.024351	0.025402
397	0.024714	0.025815
398	0.025077	0.026241
399	0.025437	0.026671
400	0.025801	0.027101
401	0.026172	0.027539
402	0.026553	0.027984
403	0.026935	0.028434
404	0.027319	0.028894
405	0.027708	0.029353
406	0.028094	0.029812
407	0.028491	0.030273
408	0.028888	0.030735
409	0.029281	0.031200
410	0.029685	0.031669
411	0.030097	0.032137
412	0.030514	0.032614
413	0.030938	0.033087
414	0.031366	0.033553
415	0.031794	0.034029
416	0.032225	0.034502
417	0.032665	0.034968
418	0.033109	0.035436
419	0.033550	0.035901
420	0.033992	0.036360
421	0.034433	0.036830
422	0.034874	0.037304
423	0.035325	0.037777
424	0.035786	0.038258
425	0.036243	0.038732
426	0.036699	0.039216
427	0.037159	0.039692
428	0.037615	0.040161
429	0.038062	0.040630
430	0.038506	0.041106
431	0.038961	0.041581
432	0.039415	0.042047
433	0.039869	0.042519
434	0.040332	0.042986
435	0.040792	0.043458
436	0.041254	0.043928
437	0.041706	0.044404
438	0.042154	0.044872
439	0.042606	0.045329
440	0.043050	0.045780
441	0.043486	0.046222
442	0.043914	0.046665
443	0.044343	0.047114
444	0.044767	0.047560
445	0.045185	0.048008
446	0.045594	0.048460
447	0.046006	0.048905
448	0.046406	0.049352
449	0.046794	0.049793
450	0.047170	0.050222
451	0.047542	0.050646
452	0.047907	0.051071
453	0.048274	0.051495
454	0.048640	0.051917
455	0.049009	0.052338
456	0.049379	0.052761
457	0.049742	0.053172
458	0.050092	0.053568
459	0.050435	0.053952
460	0.050779	0.054329
461	0.051113	0.054705
462	0.051432	0.055067
463	0.051751	0.055416
464	0.052063	0.055750
465	0.052361	0.056086
466	0.052650	0.056415
467	0.052926	0.056741
468	0.053191	0.057064
469	0.053447	0.057372
470	0.053698	0.057680
471	0.053948	0.057977
472	0.054188	0.058267
473	0.054420	0.058543
474	0.054641	0.058809
475	0.054860	0.059078
476	0.055077	0.059331
477	0.055279	0.059569
478	0.055468	0.059805
479	0.055655	0.060022
480	0.055842	0.060234
481	0.056013	0.060429
482	0.056180	0.060609
483	0.056345	0.060778
484	0.056501	0.060928
485	0.056656	0.061065
486	0.056802	0.061185
487	0.056942	0.061300
488	0.057080	0.061415
489	0.057206	0.061512
490	0.057314	0.061594
491	0.057411	0.061661
492	0.057494	0.061726
493	0.057571	0.061782
494	0.057640	0.061830
495	0.057693	0.061868
496	0.057738	0.061896
497	0.057776	0.061911
498	0.057810	0.061913
499	0.057830	0.061907
500	0.057847	0.061884
501	0.057850	0.061847
502	0.057834	0.061798
503	0.057804	0.061747
504	0.057774	0.061694
505	0.057727	0.061635
506	0.057678	0.061558
507	0.057628	0.061471
508	0.057560	0.061369
509	0.057487	0.061259
510	0.057398	0.061143
511	0.057291	0.061026
512	0.057171	0.060904
513	0.057033	0.060779
514	0.056882	0.060634
515	0.056716	0.060479
516	0.056546	0.060309
517	0.056367	0.060128
518	0.056176	0.059944
519	0.055980	0.059757
520	0.055775	0.059559
521	0.055560	0.059359
522	0.055334	0.059147
523	0.055099	0.058924
524	0.054847	0.058693
525	0.054579	0.058448
526	0.054297	0.058190
527	0.054015	0.057918
528	0.053735	0.057637
529	0.053447	0.057339
530	0.053151	0.057031
531	0.052847	0.056718
532	0.052528	0.056394
533	0.052192	0.056052
534	0.051856	0.055703
535	0.051518	0.055351
536	0.051176	0.054989
537	0.050829	0.054616
538	0.050479	0.054245
539	0.050121	0.053861
540	0.049755	0.053475
541	0.049389	0.053084
542	0.049023	0.052688
543	0.048661	0.052293
544	0.048300	0.051898
545	0.047927	0.051497
546	0.047540	0.051088
547	0.047149	0.050677
548	0.046757	0.050255
549	0.046361	0.049830
550	0.045957	0.049401
551	0.045555	0.048965
552	0.045150	0.048533
553	0.044748	0.048097
554	0.044345	0.047651
555	0.043943	0.047198
556	0.043546	0.046732
557	0.043146	0.046265
558	0.042740	0.045799
559	0.042331	0.045331
560	0.041928	0.044854
561	0.041522	0.044378
562	0.041108	0.043910
563	0.040685	0.043431
564	0.040263	0.042958
565	0.039837	0.042487
566	0.039418	0.042025
567	0.039005	0.041555
568	0.038594	0.041084
569	0.038183	0.040618
570	0.037763	0.040147
571	0.037338	0.039671
572	0.036918	0.039185
573	0.036501	0.038705
574	0.036081	0.038218
575	0.035655	0.037726
576	0.035236	0.037229
577	0.034812	0.036736
578	0.034391	0.036236
579	0.033962	0.035734
580	0.033542	0.035229
581	0.033118	0.034723
582	0.032696	0.034227
583	0.032273	0.033725
584	0.031858	0.033219
585	0.031445	0.032723
586	0.031025	0.032218
587	0.030598	0.031720
588	0.030172	0.031232
589	0.029757	0.030751
590	0.029353	0.030278
591	0.028943	0.029800
592	0.028540	0.029332
593	0.028148	0.028862
594	0.027760	0.028392
595	0.027378	0.027934
596	0.026997	0.027481
597	0.026617	0.027038
598	0.026230	0.026608
599	0.025840	0.026186
600	0.025456	0.025775
601	0.025083	0.025370
602	0.024711	0.024974
603	0.024345	0.024590
604	0.023985	0.024216
605	0.023632	0.023848
606	0.023288	0.023486
607	0.022946	0.023133
608	0.022599	0.022783
609	0.022263	0.022435
610	0.021928	0.022094
611	0.021592	0.021756
612	0.021257	0.021429
613	0.020932	0.021109
614	0.020610	0.020791
615	0.020288	0.020487
616	0.019973	0.020179
617	0.019669	0.019870
618	0.019364	0.019575
619	0.019069	0.019285
620	0.018772	0.019008
621	0.018481	0.018735
622	0.018188	0.018474
623	0.017898	0.018210
624	0.017614	0.017946
625	0.017341	0.017682
626	0.017079	0.017411
627	0.016827	0.017139
628	0.016586	0.016866
629	0.016352	0.016598
630	0.016123	0.016332
631	0.015898	0.016080
632	0.015674	0.015826
633	0.015446	0.015574
634	0.015233	0.015328
635	0.015023	0.015076
636	0.014818	0.014822
637	0.014609	0.014565
638	0.014400	0.014316
639	0.014186	0.014072
640	0.013982	0.013840
641	0.013790	0.013621
642	0.013595	0.013408
643	0.013411	0.013203
644	0.013228	0.012994
645	0.013048	0.012788
646	0.012871	0.012593
647	0.012691	0.012393
648	0.012513	0.012201
649	0.012336	0.012009
650	0.012158	0.011819
651	0.011987	0.011639
652	0.011811	0.011470
653	0.011639	0.011307
654	0.011466	0.011145
655	0.011292	0.010989
656	0.011123	0.010827
657	0.010962	0.010661
658	0.010812	0.010504
659	0.010671	0.010351
660	0.010526	0.010196
661	0.010376	0.010038
662	0.010225	0.009886
663	0.010075	0.009730
664	0.009927	0.009582
665	0.009776	0.009440
666	0.009630	0.009307
667	0.009489	0.009182
668	0.009351	0.009061
669	0.009224	0.008936
670	0.009105	0.008818
671	0.008995	0.008697
672	0.008885	0.008574
673	0.008768	0.008455
674	0.008648	0.008332
675	0.008527	0.008217
676	0.008400	0.008101
677	0.008284	0.007984
678	0.008172	0.007866
679	0.008053	0.007747
680	0.007947	0.007638
681	0.007847	0.007527
682	0.007759	0.007418
683	0.007666	0.007306
684	0.007574	0.007196
685	0.007480	0.007098
686	0.007381	0.006995
687	0.007282	0.006885
688	0.007189	0.006775
689	0.007099	0.006665
690	0.007005	0.006564
691	0.006907	0.006469
692	0.006803	0.006371
693	0.006703	0.006266
694	0.006602	0.006165
695	0.006504	0.006066
696	0.006414	0.005965
697	0.006331	0.005859
698	0.006250	0.005760
699	0.006166	0.005670
700	0.006092	0.005587
701	0.006027	0.005504
702	0.005965	0.005433
703	0.005903	0.005357
704	0.005846	0.005277
705	0.005782	0.005204
706	0.005722	0.005139
707	0.005655	0.005068
708	0.005585	0.005002
709	0.005512	0.004938
710	0.005434	0.004876
711	0.005365	0.004819
712	0.005305	0.004772
713	0.005253	0.004727
714	0.005201	0.004680
715	0.005143	0.004624
716	0.005087	0.004564
717	0.005029	0.004514
718	0.004966	0.004457
719	0.004901	0.004402
720	0.004837	0.004355
721	0.004777	0.004303
722	0.004718	0.004244
723	0.004665	0.004189
724	0.004609	0.004137
725	0.004548	0.004095
726	0.004493	0.004051
727	0.004438	0.004017
728	0.004383	0.003986
729	0.004339	0.003948
730	0.004291	0.003919
731	0.004237	0.003882
732	0.004194	0.003848
733	0.004158	0.003814
734	0.004114	0.003774
735	0.004062	0.003725
736	0.004008	0.003676
737	0.003955	0.003630
738	0.003900	0.003589
739	0.003844	0.003544
740	0.003784	0.003500
741	0.003733	0.003458
742	0.003684	0.003424
743	0.003637	0.003388
744	0.003591	0.003361
745	0.003553	0.003335
746	0.003517	0.003313
747	0.003480	0.003282
748	0.003443	0.003251
749	0.003410	0.003215
750	0.003373	0.003177
751	0.003345	0.003144
752	0.003314	0.003112
753	0.003281	0.003079
754	0.003252	0.003049
755	0.003216	0.003023
756	0.003178	0.003005
757	0.003148	0.002980
758	0.003117	0.002961
759	0.003092	0.002940
760	0.003077	0.002929
761	0.003065	0.002920
762	0.003057	0.002912
763	0.003041	0.002896
764	0.003021	0.002871
765	0.003002	0.002852
766	0.002984	0.002833
767	0.002958	0.002813
768	0.002939	0.002800
769	0.002921	0.002784
770	0.002895	0.002770
771	0.002870	0.002759
772	0.002850	0.002746
773	0.002825	0.002731
774	0.002807	0.002709
775	0.002783	0.002697
776	0.002760	0.002692
777	0.002736	0.002693
778	0.002719	0.002688
779	0.002699	0.002682
780	0.002673	0.002670
781	0.002650	0.002664
782	0.002623	0.002663
783	0.002597	0.002666
784	0.002562	0.002661
785	0.002530	0.002648
786	0.002503	0.002628
787	0.002475	0.002602
788	0.002447	0.002575
789	0.002423	0.002552
790	0.002400	0.002527
791	0.002371	0.002508
792	0.002344	0.002482
793	0.002314	0.002458
794	0.002292	0.002433
795	0.002273	0.002411
796	0.002250	0.002383
797	0.002235	0.002350
798	0.002228	0.002318
799	0.002222	0.002286
800	0.002217	0.002262
801	0.002222	0.002233
802	0.002224	0.002198
803	0.002229	0.002163
804	0.002227	0.002135
805	0.002219	0.002103
806	0.002204	0.002074
807	0.002193	0.002042
808	0.002193	0.002014
809	0.002185	0.001976
810	0.002180	0.001946
811	0.002167	0.001920
812	0.002164	0.001902
813	0.002160	0.001892
814	0.002156	0.001889
815	0.002158	0.001876
816	0.002156	0.001871
817	0.002148	0.001871
818	0.002136	0.001873
819	0.002123	0.001880
820	0.002105	0.001883
821	0.002094	0.001889
822	0.002077	0.001890
823	0.002069	0.001892
824	0.002063	0.001886
825	0.002049	0.001871
826	0.002041	0.001849
827	0.002026	0.001819
828	0.002002	0.001794
829	0.001982	0.001770
830	0.001965	0.001743
831	0.001945	0.001716
832	0.001921	0.001693
833	0.001895	0.001671
834	0.001867	0.001647
835	0.001844	0.001628
836	0.001821	0.001609
837	0.001803	0.001590
838	0.001779	0.001573
839	0.001758	0.001558
840	0.001743	0.001546
841	0.001734	0.001537
842	0.001730	0.001528
843	0.001723	0.001525
844	0.001714	0.001528
845	0.001701	0.001538
846	0.001685	0.001537
847	0.001675	0.001538
848	0.001658	0.001539
849	0.001651	0.001534
850	0.001634	0.001527
851	0.001628	0.001524
852	0.001616	0.001521
853	0.001597	0.001522
854	0.001577	0.001521
855	0.001568	0.001524
856	0.001558	0.001522
857	0.001553	0.001526
858	0.001552	0.001525
859	0.001544	0.001515
860	0.001544	0.001497
861	0.001536	0.001477
862	0.001519	0.001451
863	0.001507	0.001434
864	0.001488	0.001408
865	0.001471	0.001387
866	0.001452	0.001359
867	0.001437	0.001331
868	0.001419	0.001305
869	0.001409	0.001285
870	0.001402	0.001270
871	0.001386	0.001263
872	0.001375	0.001247
873	0.001362	0.001236
874	0.001354	0.001223
875	0.001348	0.001209
876	0.001349	0.001198
877	0.001359	0.001190
878	0.001371	0.001188
879	0.001373	0.001189
880	0.001375	0.001194
881	0.001385	0.001199
882	0.001389	0.001211
883	0.001394	0.001225
884	0.001399	0.001238
885	0.001400	0.001250
886	0.001402	0.001254
887	0.001398	0.001254
888	0.001388	0.001249
889	0.001383	0.001246
890	0.001372	0.001251
891	0.001365	0.001252
892	0.001367	0.001245
893	0.001361	0.001238
894	0.001350	0.001234
895	0.001338	0.001220
896	0.001330	0.001210
897	0.001323	0.001197
898	0.001307	0.001189
899	0.001288	0.001172
900	0.001270	0.001155
901	0.001256	0.001140
902	0.001250	0.001133
903	0.001239	0.001134
904	0.001230	0.001125
905	0.001230	0.001124
906	0.001225	0.001128
907	0.001227	0.001133
908	0.001222	0.001132
909	0.001225	0.001138
910	0.001237	0.001141
911	0.001240	0.001139
